INDEX VERSION 1.132+/Users/ramanujdas/Documents/Training-Programs/blue-yonder-repo/shopping-app-microservices/.metadata/.plugins/org.eclipse.jdt.core
3870735733.index
1217644567.index
1146819214.index
2321767815.index
401669694.index
401063546.index
264972158.index
773414979.index
442411824.index
1595575992.index
3466259494.index
2103221092.index
2721764816.index
317485152.index
4001064147.index
1640898502.index
144907423.index
230970649.index
3873402453.index
1688146585.index
2207673129.index
3738640231.index
1605941227.index
366873224.index
3255743638.index
2138619753.index
196869074.index
634320577.index
851218121.index
562915669.index
1497949902.index
3334357416.index
1528314705.index
3277569583.index
774378375.index
298249164.index
4274394799.index
768093548.index
2655480357.index
1064190386.index
1611929019.index
3330394028.index
1869628932.index
2347083551.index
518080629.index
1856168833.index
442084837.index
2586745136.index
3182992512.index
3169518497.index
764045889.index
75249084.index
1434383140.index
2396367372.index
2205785453.index
4273626145.index
584815426.index
3936841024.index
3433745941.index
2212706413.index
3657918252.index
3175276484.index
431615301.index
2355378152.index
3139433318.index
326048993.index
3687143224.index
1667093125.index
3236875506.index
2072791189.index
3383918866.index
271585176.index
1304397129.index
3147950941.index
1751799615.index
566393314.index
993246743.index
394247910.index
360360355.index
397670606.index
1344806900.index
489084827.index
2331127585.index
162752416.index
1810413637.index
4157033404.index
2290783197.index
1817302122.index
3139525625.index
174360101.index
2378172387.index
2357751648.index
1314184039.index
792262720.index
3835248220.index
2815130118.index
3753167270.index
561136785.index
176309494.index
1995583588.index
2800497722.index
1202470939.index
3891233665.index
4238582234.index
2145774069.index
379478074.index
3654568108.index
1953160902.index
2883681716.index
1188118110.index
3592576459.index
1884935577.index
3841415165.index
207773401.index
3371092740.index
2939207788.index
2139569812.index
4198182542.index
60906725.index
2463032123.index
2720425747.index
3731171252.index
2862147317.index
634184497.index
4272943635.index
2110130499.index
1759452013.index
1993076807.index
307251252.index
1963332188.index
1789015474.index
3493694597.index
866853530.index
2375822018.index
2633232846.index
4016009832.index
1865797976.index
2432450588.index
2537085494.index
3690268542.index
314870621.index
3187750293.index
3726150005.index
327532186.index
1941979288.index
3139818536.index
126197488.index
707991748.index
307585361.index
2301058174.index
1685946364.index
1675724478.index
52554096.index
1772071770.index
3977789526.index
1748202677.index
3641543764.index
1638265970.index
4287360467.index
3064129492.index
501554780.index
264008514.index
4159323658.index
3047327988.index
184457818.index
617399670.index
3282256493.index
3278718261.index
3902369028.index
1862343746.index
2129802771.index
221390945.index
425841945.index
158100221.index
3870541399.index
4210390252.index
1772812750.index
1701140381.index
361691920.index
1712144900.index
2452214889.index
1500615512.index
4287394954.index
50249379.index
3353809032.index
3355838217.index
1986709895.index
710592858.index
2860414289.index
3172326157.index
1005885452.index
1312591818.index
3441610688.index
423189702.index
4030457455.index
2638723224.index
2881034868.index
712135600.index
360893902.index
2329970198.index
973767366.index
2405761944.index
1669379920.index
2829764930.index
425538807.index
4194514935.index
3223499856.index
1383404558.index
3416106794.index
582600412.index
3734028539.index
657595650.index
523026655.index
2961589204.index
2673465062.index
953322249.index
